May 6, 2023   14:39:21
Linear Sweep Voltammetry
File: d:\Data Source:  Experiment
Instrument Model:  CHI750E
Header: 
Note: 

Init E (V) = -0.1
Final E (V) = 0.8
Scan Rate (V/s) = 0.01
Sample Interval (V) = 0.001
Quiet Time (sec) = 2
Sensitivity (A/V) = 0.001

Results:

Channel 1:

Potential/V, Current/A

-0.100, 2.969e-5
-0.099, 1.648e-5
-0.098, 1.122e-5
-0.097, 8.758e-6
-0.096, 7.174e-6
-0.095, 6.028e-6
-0.094, 5.235e-6
-0.093, 4.368e-6
-0.092, 3.625e-6
-0.091, 3.056e-6
-0.090, 2.750e-6
-0.089, 2.375e-6
-0.088, 1.916e-6
-0.087, 1.286e-6
-0.086, 9.899e-7
-0.085, 7.219e-7
-0.084, 4.453e-7
-0.083, 1.789e-7
-0.082, -1.592e-7
-0.081, -3.034e-7
-0.080, -2.128e-7
-0.079, -5.493e-7
-0.078, -7.101e-7
-0.077, -7.810e-7
-0.076, -8.441e-7
-0.075, -1.086e-6
-0.074, -1.401e-6
-0.073, -1.493e-6
-0.072, -1.375e-6
-0.071, -1.330e-6
-0.070, -1.419e-6
-0.069, -1.479e-6
-0.068, -1.699e-6
-0.067, -1.534e-6
-0.066, -1.707e-6
-0.065, -1.661e-6
-0.064, -1.701e-6
-0.063, -1.622e-6
-0.062, -1.687e-6
-0.061, -1.558e-6
-0.060, -1.614e-6
-0.059, -1.398e-6
-0.058, -1.534e-6
-0.057, -1.471e-6
-0.056, -1.308e-6
-0.055, -1.305e-6
-0.054, -1.441e-6
-0.053, -1.376e-6
-0.052, -1.337e-6
-0.051, -1.519e-6
-0.050, -1.114e-6
-0.049, -1.085e-6
-0.048, -8.685e-7
-0.047, -8.835e-7
-0.046, -8.598e-7
-0.045, -8.086e-7
-0.044, -7.085e-7
-0.043, -5.351e-7
-0.042, -2.215e-7
-0.041, -3.602e-7
-0.040, -4.264e-7
-0.039, -4.082e-7
-0.038, -2.845e-7
-0.037, -1.529e-7
-0.036, -1.237e-7
-0.035, 3.231e-8
-0.034, 1.915e-7
-0.033, 1.198e-7
-0.032, 1.560e-7
-0.031, 2.916e-7
-0.030, 3.342e-7
-0.029, 4.540e-7
-0.028, 5.816e-7
-0.027, 6.549e-7
-0.026, 6.084e-7
-0.025, 5.336e-7
-0.024, 7.235e-7
-0.023, 9.781e-7
-0.022, 1.084e-6
-0.021, 1.248e-6
-0.020, 1.251e-6
-0.019, 1.371e-6
-0.018, 1.514e-6
-0.017, 1.621e-6
-0.016, 1.727e-6
-0.015, 1.832e-6
-0.014, 1.815e-6
-0.013, 1.966e-6
-0.012, 2.014e-6
-0.011, 2.029e-6
-0.010, 2.197e-6
-0.009, 2.408e-6
-0.008, 2.427e-6
-0.007, 2.426e-6
-0.006, 2.486e-6
-0.005, 2.937e-6
-0.004, 2.887e-6
-0.003, 2.900e-6
-0.002, 3.027e-6
-0.001, 3.279e-6
-0.000, 2.931e-6
0.001, 3.414e-6
0.002, 3.492e-6
0.003, 3.616e-6
0.004, 3.667e-6
0.005, 3.900e-6
0.006, 3.868e-6
0.007, 3.844e-6
0.008, 3.906e-6
0.009, 3.981e-6
0.010, 3.992e-6
0.011, 4.387e-6
0.012, 4.216e-6
0.013, 4.231e-6
0.014, 4.209e-6
0.015, 4.350e-6
0.016, 4.559e-6
0.017, 4.488e-6
0.018, 4.621e-6
0.019, 4.626e-6
0.020, 4.738e-6
0.021, 4.917e-6
0.022, 5.009e-6
0.023, 4.970e-6
0.024, 4.992e-6
0.025, 5.028e-6
0.026, 4.903e-6
0.027, 5.177e-6
0.028, 5.228e-6
0.029, 5.182e-6
0.030, 5.301e-6
0.031, 5.310e-6
0.032, 5.321e-6
0.033, 5.459e-6
0.034, 5.454e-6
0.035, 5.399e-6
0.036, 5.419e-6
0.037, 5.600e-6
0.038, 5.597e-6
0.039, 5.597e-6
0.040, 5.657e-6
0.041, 5.672e-6
0.042, 5.615e-6
0.043, 5.507e-6
0.044, 5.615e-6
0.045, 5.639e-6
0.046, 5.699e-6
0.047, 5.903e-6
0.048, 5.887e-6
0.049, 5.866e-6
0.050, 5.741e-6
0.051, 5.567e-6
0.052, 5.927e-6
0.053, 5.984e-6
0.054, 6.043e-6
0.055, 6.055e-6
0.056, 6.111e-6
0.057, 6.018e-6
0.058, 6.080e-6
0.059, 6.016e-6
0.060, 6.037e-6
0.061, 6.099e-6
0.062, 6.087e-6
0.063, 6.126e-6
0.064, 6.278e-6
0.065, 6.148e-6
0.066, 6.107e-6
0.067, 6.110e-6
0.068, 6.169e-6
0.069, 6.233e-6
0.070, 6.135e-6
0.071, 5.964e-6
0.072, 6.078e-6
0.073, 6.179e-6
0.074, 6.235e-6
0.075, 6.404e-6
0.076, 6.444e-6
0.077, 6.297e-6
0.078, 6.384e-6
0.079, 6.270e-6
0.080, 6.209e-6
0.081, 6.232e-6
0.082, 6.100e-6
0.083, 6.119e-6
0.084, 6.126e-6
0.085, 6.426e-6
0.086, 6.357e-6
0.087, 6.258e-6
0.088, 6.236e-6
0.089, 6.246e-6
0.090, 6.207e-6
0.091, 6.285e-6
0.092, 6.255e-6
0.093, 6.259e-6
0.094, 6.287e-6
0.095, 6.136e-6
0.096, 6.136e-6
0.097, 6.224e-6
0.098, 6.120e-6
0.099, 6.236e-6
0.100, 6.149e-6
0.101, 6.114e-6
0.102, 6.035e-6
0.103, 6.195e-6
0.104, 6.141e-6
0.105, 6.087e-6
0.106, 6.236e-6
0.107, 6.129e-6
0.108, 6.054e-6
0.109, 5.974e-6
0.110, 5.867e-6
0.111, 5.948e-6
0.112, 5.992e-6
0.113, 6.034e-6
0.114, 5.808e-6
0.115, 6.021e-6
0.116, 5.801e-6
0.117, 5.920e-6
0.118, 5.919e-6
0.119, 5.803e-6
0.120, 5.756e-6
0.121, 5.682e-6
0.122, 5.903e-6
0.123, 5.779e-6
0.124, 5.542e-6
0.125, 5.670e-6
0.126, 5.668e-6
0.127, 5.560e-6
0.128, 5.453e-6
0.129, 5.455e-6
0.130, 5.566e-6
0.131, 5.649e-6
0.132, 5.542e-6
0.133, 5.641e-6
0.134, 5.288e-6
0.135, 5.393e-6
0.136, 5.481e-6
0.137, 5.417e-6
0.138, 5.384e-6
0.139, 5.396e-6
0.140, 5.424e-6
0.141, 5.213e-6
0.142, 5.189e-6
0.143, 5.191e-6
0.144, 5.271e-6
0.145, 5.075e-6
0.146, 5.128e-6
0.147, 5.166e-6
0.148, 5.006e-6
0.149, 5.143e-6
0.150, 4.892e-6
0.151, 4.953e-6
0.152, 5.093e-6
0.153, 4.986e-6
0.154, 4.719e-6
0.155, 4.966e-6
0.156, 4.927e-6
0.157, 4.846e-6
0.158, 4.807e-6
0.159, 4.491e-6
0.160, 4.491e-6
0.161, 4.444e-6
0.162, 4.448e-6
0.163, 4.818e-6
0.164, 4.756e-6
0.165, 4.609e-6
0.166, 4.570e-6
0.167, 4.629e-6
0.168, 4.537e-6
0.169, 4.406e-6
0.170, 4.312e-6
0.171, 4.386e-6
0.172, 4.265e-6
0.173, 4.392e-6
0.174, 4.265e-6
0.175, 4.307e-6
0.176, 4.343e-6
0.177, 4.220e-6
0.178, 4.253e-6
0.179, 4.286e-6
0.180, 4.194e-6
0.181, 4.280e-6
0.182, 3.911e-6
0.183, 3.894e-6
0.184, 4.035e-6
0.185, 4.154e-6
0.186, 3.959e-6
0.187, 3.913e-6
0.188, 3.923e-6
0.189, 3.909e-6
0.190, 4.069e-6
0.191, 3.908e-6
0.192, 3.970e-6
0.193, 3.800e-6
0.194, 3.831e-6
0.195, 3.701e-6
0.196, 3.787e-6
0.197, 3.818e-6
0.198, 3.743e-6
0.199, 3.525e-6
0.200, 3.502e-6
0.201, 3.636e-6
0.202, 3.445e-6
0.203, 3.228e-6
0.204, 3.368e-6
0.205, 3.324e-6
0.206, 3.274e-6
0.207, 3.348e-6
0.208, 3.325e-6
0.209, 3.198e-6
0.210, 3.125e-6
0.211, 3.223e-6
0.212, 3.086e-6
0.213, 3.180e-6
0.214, 3.127e-6
0.215, 2.807e-6
0.216, 2.933e-6
0.217, 2.903e-6
0.218, 2.800e-6
0.219, 2.872e-6
0.220, 2.793e-6
0.221, 2.735e-6
0.222, 2.688e-6
0.223, 2.574e-6
0.224, 2.669e-6
0.225, 2.742e-6
0.226, 2.587e-6
0.227, 2.688e-6
0.228, 2.519e-6
0.229, 2.557e-6
0.230, 2.468e-6
0.231, 2.419e-6
0.232, 2.431e-6
0.233, 2.433e-6
0.234, 2.349e-6
0.235, 2.391e-6
0.236, 2.247e-6
0.237, 2.115e-6
0.238, 2.208e-6
0.239, 1.966e-6
0.240, 2.178e-6
0.241, 2.027e-6
0.242, 2.040e-6
0.243, 2.105e-6
0.244, 1.960e-6
0.245, 1.955e-6
0.246, 1.954e-6
0.247, 1.842e-6
0.248, 1.893e-6
0.249, 1.907e-6
0.250, 1.663e-6
0.251, 1.591e-6
0.252, 1.540e-6
0.253, 1.653e-6
0.254, 1.792e-6
0.255, 1.538e-6
0.256, 1.367e-6
0.257, 1.656e-6
0.258, 1.575e-6
0.259, 1.465e-6
0.260, 1.155e-6
0.261, 1.040e-6
0.262, 1.319e-6
0.263, 1.242e-6
0.264, 1.235e-6
0.265, 1.383e-6
0.266, 1.294e-6
0.267, 1.202e-6
0.268, 1.036e-6
0.269, 1.107e-6
0.270, 9.859e-7
0.271, 8.803e-7
0.272, 1.064e-6
0.273, 8.362e-7
0.274, 9.205e-7
0.275, 8.874e-7
0.276, 7.810e-7
0.277, 6.628e-7
0.278, 4.760e-7
0.279, 5.966e-7
0.280, 6.258e-7
0.281, 5.107e-7
0.282, 5.785e-7
0.283, 6.155e-7
0.284, 5.154e-7
0.285, 5.068e-7
0.286, 3.972e-7
0.287, 1.931e-7
0.288, 6.305e-8
0.289, 1.568e-7
0.290, 3.657e-7
0.291, 2.554e-7
0.292, 1.576e-7
0.293, 2.514e-7
0.294, 2.238e-7
0.295, 2.128e-8
0.296, 1.891e-8
0.297, -1.576e-8
0.298, 8.118e-8
0.299, 1.206e-7
0.300, -2.262e-7
0.301, -2.490e-7
0.302, -6.463e-8
0.303, -8.591e-8
0.304, -2.207e-7
0.305, -2.506e-7
0.306, -2.420e-7
0.307, -4.681e-7
0.308, -1.797e-7
0.309, -1.269e-7
0.310, -2.782e-7
0.311, -3.263e-7
0.312, -1.261e-7
0.313, -2.735e-7
0.314, -3.657e-7
0.315, -5.895e-7
0.316, -3.665e-7
0.317, -2.979e-7
0.318, -5.217e-7
0.319, -5.627e-7
0.320, -4.461e-7
0.321, -5.210e-7
0.322, -5.485e-7
0.323, -4.902e-7
0.324, -5.533e-7
0.325, -5.091e-7
0.326, -5.667e-7
0.327, -6.203e-7
0.328, -4.469e-7
0.329, -4.792e-7
0.330, -4.177e-7
0.331, -1.671e-7
0.332, -2.680e-7
0.333, -3.996e-7
0.334, -5.722e-7
0.335, -6.242e-7
0.336, -5.162e-7
0.337, -5.477e-7
0.338, -5.012e-7
0.339, -6.076e-7
0.340, -5.816e-7
0.341, -4.666e-7
0.342, -5.028e-7
0.343, -4.934e-7
0.344, -3.720e-7
0.345, -7.637e-7
0.346, -7.834e-7
0.347, -6.904e-7
0.348, -6.400e-7
0.349, -6.943e-7
0.350, -6.510e-7
0.351, -7.598e-7
0.352, -9.016e-7
0.353, -6.329e-7
0.354, -6.289e-7
0.355, -5.391e-7
0.356, -5.927e-7
0.357, -4.075e-7
0.358, -7.519e-7
0.359, -6.415e-7
0.360, -5.367e-7
0.361, -5.588e-7
0.362, -5.351e-7
0.363, -5.714e-7
0.364, -6.636e-7
0.365, -5.966e-7
0.366, -5.336e-7
0.367, -5.312e-7
0.368, -3.491e-7
0.369, -5.627e-7
0.370, -4.997e-7
0.371, -6.392e-7
0.372, -6.384e-7
0.373, -4.745e-7
0.374, -5.399e-7
0.375, -6.754e-7
0.376, -3.815e-7
0.377, -4.012e-7
0.378, -3.901e-7
0.379, -2.908e-7
0.380, -4.161e-7
0.381, -5.107e-7
0.382, -4.027e-7
0.383, -3.681e-7
0.384, -3.712e-7
0.385, -5.052e-7
0.386, -4.335e-7
0.387, -3.783e-7
0.388, -3.728e-7
0.389, -5.036e-7
0.390, -4.216e-7
0.391, -4.540e-7
0.392, -3.405e-7
0.393, -3.870e-7
0.394, -2.948e-7
0.395, -3.342e-7
0.396, -4.579e-7
0.397, -4.808e-7
0.398, -4.847e-7
0.399, -4.697e-7
0.400, -4.611e-7
0.401, -3.515e-7
0.402, -4.358e-7
0.403, -5.312e-7
0.404, -4.721e-7
0.405, -4.185e-7
0.406, -5.194e-7
0.407, -5.036e-7
0.408, -5.753e-7
0.409, -5.990e-7
0.410, -6.486e-7
0.411, -4.618e-7
0.412, -4.681e-7
0.413, -4.161e-7
0.414, -5.564e-7
0.415, -5.407e-7
0.416, -5.745e-7
0.417, -6.029e-7
0.418, -5.454e-7
0.419, -6.802e-7
0.420, -7.038e-7
0.421, -6.360e-7
0.422, -7.180e-7
0.423, -6.912e-7
0.424, -5.304e-7
0.425, -7.377e-7
0.426, -8.551e-7
0.427, -7.724e-7
0.428, -8.118e-7
0.429, -7.172e-7
0.430, -7.527e-7
0.431, -8.441e-7
0.432, -6.872e-7
0.433, -7.558e-7
0.434, -8.748e-7
0.435, -9.796e-7
0.436, -1.067e-6
0.437, -1.085e-6
0.438, -9.402e-7
0.439, -9.891e-7
0.440, -8.378e-7
0.441, -1.073e-6
0.442, -1.244e-6
0.443, -1.159e-6
0.444, -1.133e-6
0.445, -1.206e-6
0.446, -1.142e-6
0.447, -1.252e-6
0.448, -1.321e-6
0.449, -1.312e-6
0.450, -1.404e-6
0.451, -1.415e-6
0.452, -1.459e-6
0.453, -1.482e-6
0.454, -1.472e-6
0.455, -1.594e-6
0.456, -1.618e-6
0.457, -1.841e-6
0.458, -1.784e-6
0.459, -1.806e-6
0.460, -1.892e-6
0.461, -1.977e-6
0.462, -1.802e-6
0.463, -2.006e-6
0.464, -2.145e-6
0.465, -2.154e-6
0.466, -2.225e-6
0.467, -2.282e-6
0.468, -2.736e-6
0.469, -2.810e-6
0.470, -2.620e-6
0.471, -2.642e-6
0.472, -2.598e-6
0.473, -2.733e-6
0.474, -2.936e-6
0.475, -2.869e-6
0.476, -3.106e-6
0.477, -2.987e-6
0.478, -3.100e-6
0.479, -3.420e-6
0.480, -3.393e-6
0.481, -3.328e-6
0.482, -3.532e-6
0.483, -3.651e-6
0.484, -3.580e-6
0.485, -3.597e-6
0.486, -3.681e-6
0.487, -3.853e-6
0.488, -3.947e-6
0.489, -4.030e-6
0.490, -4.089e-6
0.491, -4.138e-6
0.492, -4.193e-6
0.493, -4.276e-6
0.494, -4.214e-6
0.495, -4.402e-6
0.496, -4.577e-6
0.497, -4.713e-6
0.498, -4.735e-6
0.499, -4.748e-6
0.500, -4.852e-6
0.501, -4.958e-6
0.502, -5.035e-6
0.503, -5.231e-6
0.504, -5.175e-6
0.505, -5.224e-6
0.506, -5.422e-6
0.507, -5.345e-6
0.508, -5.394e-6
0.509, -5.627e-6
0.510, -5.749e-6
0.511, -5.677e-6
0.512, -5.936e-6
0.513, -5.987e-6
0.514, -6.141e-6
0.515, -6.084e-6
0.516, -6.318e-6
0.517, -6.167e-6
0.518, -6.440e-6
0.519, -6.494e-6
0.520, -6.514e-6
0.521, -6.551e-6
0.522, -6.613e-6
0.523, -6.685e-6
0.524, -6.818e-6
0.525, -6.837e-6
0.526, -6.881e-6
0.527, -7.017e-6
0.528, -7.028e-6
0.529, -7.110e-6
0.530, -7.244e-6
0.531, -7.383e-6
0.532, -7.529e-6
0.533, -7.484e-6
0.534, -7.598e-6
0.535, -7.715e-6
0.536, -7.762e-6
0.537, -7.806e-6
0.538, -7.961e-6
0.539, -7.913e-6
0.540, -8.092e-6
0.541, -8.137e-6
0.542, -8.167e-6
0.543, -8.355e-6
0.544, -8.362e-6
0.545, -8.466e-6
0.546, -8.490e-6
0.547, -8.635e-6
0.548, -8.820e-6
0.549, -8.849e-6
0.550, -9.022e-6
0.551, -9.154e-6
0.552, -9.326e-6
0.553, -9.322e-6
0.554, -9.402e-6
0.555, -9.534e-6
0.556, -9.743e-6
0.557, -9.730e-6
0.558, -9.830e-6
0.559, -9.870e-6
0.560, -9.915e-6
0.561, -9.969e-6
0.562, -1.031e-5
0.563, -1.056e-5
0.564, -1.054e-5
0.565, -1.046e-5
0.566, -1.058e-5
0.567, -1.080e-5
0.568, -1.082e-5
0.569, -1.105e-5
0.570, -1.131e-5
0.571, -1.128e-5
0.572, -1.146e-5
0.573, -1.159e-5
0.574, -1.172e-5
0.575, -1.199e-5
0.576, -1.205e-5
0.577, -1.207e-5
0.578, -1.227e-5
0.579, -1.231e-5
0.580, -1.263e-5
0.581, -1.269e-5
0.582, -1.287e-5
0.583, -1.304e-5
0.584, -1.315e-5
0.585, -1.335e-5
0.586, -1.366e-5
0.587, -1.372e-5
0.588, -1.398e-5
0.589, -1.414e-5
0.590, -1.432e-5
0.591, -1.445e-5
0.592, -1.459e-5
0.593, -1.466e-5
0.594, -1.498e-5
0.595, -1.517e-5
0.596, -1.542e-5
0.597, -1.560e-5
0.598, -1.570e-5
0.599, -1.592e-5
0.600, -1.604e-5
0.601, -1.627e-5
0.602, -1.663e-5
0.603, -1.680e-5
0.604, -1.688e-5
0.605, -1.689e-5
0.606, -1.727e-5
0.607, -1.751e-5
0.608, -1.765e-5
0.609, -1.785e-5
0.610, -1.809e-5
0.611, -1.836e-5
0.612, -1.843e-5
0.613, -1.864e-5
0.614, -1.887e-5
0.615, -1.910e-5
0.616, -1.921e-5
0.617, -1.936e-5
0.618, -1.965e-5
0.619, -1.976e-5
0.620, -2.002e-5
0.621, -2.018e-5
0.622, -2.032e-5
0.623, -2.060e-5
0.624, -2.068e-5
0.625, -2.098e-5
0.626, -2.112e-5
0.627, -2.128e-5
0.628, -2.146e-5
0.629, -2.154e-5
0.630, -2.178e-5
0.631, -2.207e-5
0.632, -2.202e-5
0.633, -2.233e-5
0.634, -2.250e-5
0.635, -2.259e-5
0.636, -2.272e-5
0.637, -2.284e-5
0.638, -2.296e-5
0.639, -2.316e-5
0.640, -2.335e-5
0.641, -2.351e-5
0.642, -2.355e-5
0.643, -2.367e-5
0.644, -2.387e-5
0.645, -2.389e-5
0.646, -2.409e-5
0.647, -2.432e-5
0.648, -2.434e-5
0.649, -2.441e-5
0.650, -2.460e-5
0.651, -2.468e-5
0.652, -2.476e-5
0.653, -2.508e-5
0.654, -2.505e-5
0.655, -2.511e-5
0.656, -2.518e-5
0.657, -2.533e-5
0.658, -2.543e-5
0.659, -2.552e-5
0.660, -2.567e-5
0.661, -2.573e-5
0.662, -2.586e-5
0.663, -2.578e-5
0.664, -2.598e-5
0.665, -2.618e-5
0.666, -2.622e-5
0.667, -2.629e-5
0.668, -2.641e-5
0.669, -2.640e-5
0.670, -2.655e-5
0.671, -2.658e-5
0.672, -2.662e-5
0.673, -2.676e-5
0.674, -2.677e-5
0.675, -2.684e-5
0.676, -2.705e-5
0.677, -2.701e-5
0.678, -2.707e-5
0.679, -2.726e-5
0.680, -2.723e-5
0.681, -2.732e-5
0.682, -2.736e-5
0.683, -2.743e-5
0.684, -2.752e-5
0.685, -2.757e-5
0.686, -2.761e-5
0.687, -2.775e-5
0.688, -2.774e-5
0.689, -2.789e-5
0.690, -2.800e-5
0.691, -2.797e-5
0.692, -2.810e-5
0.693, -2.801e-5
0.694, -2.817e-5
0.695, -2.815e-5
0.696, -2.816e-5
0.697, -2.838e-5
0.698, -2.843e-5
0.699, -2.834e-5
0.700, -2.852e-5
0.701, -2.853e-5
0.702, -2.858e-5
0.703, -2.872e-5
0.704, -2.866e-5
0.705, -2.874e-5
0.706, -2.879e-5
0.707, -2.889e-5
0.708, -2.899e-5
0.709, -2.895e-5
0.710, -2.914e-5
0.711, -2.921e-5
0.712, -2.919e-5
0.713, -2.922e-5
0.714, -2.933e-5
0.715, -2.926e-5
0.716, -2.942e-5
0.717, -2.952e-5
0.718, -2.936e-5
0.719, -2.948e-5
0.720, -2.961e-5
0.721, -2.962e-5
0.722, -2.973e-5
0.723, -2.972e-5
0.724, -2.997e-5
0.725, -2.990e-5
0.726, -2.992e-5
0.727, -3.005e-5
0.728, -3.011e-5
0.729, -3.009e-5
0.730, -3.017e-5
0.731, -3.023e-5
0.732, -3.031e-5
0.733, -3.026e-5
0.734, -3.038e-5
0.735, -3.051e-5
0.736, -3.050e-5
0.737, -3.061e-5
0.738, -3.064e-5
0.739, -3.069e-5
0.740, -3.081e-5
0.741, -3.077e-5
0.742, -3.087e-5
0.743, -3.102e-5
0.744, -3.101e-5
0.745, -3.113e-5
0.746, -3.104e-5
0.747, -3.118e-5
0.748, -3.123e-5
0.749, -3.134e-5
0.750, -3.132e-5
0.751, -3.143e-5
0.752, -3.152e-5
0.753, -3.166e-5
0.754, -3.168e-5
0.755, -3.165e-5
0.756, -3.166e-5
0.757, -3.175e-5
0.758, -3.184e-5
0.759, -3.197e-5
0.760, -3.190e-5
0.761, -3.214e-5
0.762, -3.214e-5
0.763, -3.214e-5
0.764, -3.223e-5
0.765, -3.228e-5
0.766, -3.241e-5
0.767, -3.234e-5
0.768, -3.267e-5
0.769, -3.258e-5
0.770, -3.265e-5
0.771, -3.265e-5
0.772, -3.288e-5
0.773, -3.278e-5
0.774, -3.291e-5
0.775, -3.294e-5
0.776, -3.294e-5
0.777, -3.315e-5
0.778, -3.324e-5
0.779, -3.311e-5
0.780, -3.334e-5
0.781, -3.345e-5
0.782, -3.341e-5
0.783, -3.345e-5
0.784, -3.340e-5
0.785, -3.364e-5
0.786, -3.367e-5
0.787, -3.376e-5
0.788, -3.390e-5
0.789, -3.389e-5
0.790, -3.406e-5
0.791, -3.407e-5
0.792, -3.398e-5
0.793, -3.418e-5
0.794, -3.436e-5
0.795, -3.438e-5
0.796, -3.446e-5
0.797, -3.453e-5
0.798, -3.449e-5
0.799, -3.467e-5
