May 6, 2023   16:49:13
Linear Sweep Voltammetry
File: d:\Data Source:  Experiment
Instrument Model:  CHI750E
Header: 
Note: 

Init E (V) = -0.1
Final E (V) = 0.8
Scan Rate (V/s) = 0.01
Sample Interval (V) = 0.001
Quiet Time (sec) = 2
Sensitivity (A/V) = 0.001

Results:

Channel 1:

Potential/V, Current/A

-0.100, 6.229e-4
-0.099, 6.117e-4
-0.098, 6.070e-4
-0.097, 6.046e-4
-0.096, 6.038e-4
-0.095, 6.035e-4
-0.094, 6.036e-4
-0.093, 6.035e-4
-0.092, 6.028e-4
-0.091, 6.028e-4
-0.090, 6.024e-4
-0.089, 6.028e-4
-0.088, 6.032e-4
-0.087, 6.026e-4
-0.086, 6.031e-4
-0.085, 6.031e-4
-0.084, 6.028e-4
-0.083, 6.030e-4
-0.082, 6.033e-4
-0.081, 6.043e-4
-0.080, 6.039e-4
-0.079, 6.039e-4
-0.078, 6.042e-4
-0.077, 6.048e-4
-0.076, 6.040e-4
-0.075, 6.048e-4
-0.074, 6.051e-4
-0.073, 6.050e-4
-0.072, 6.046e-4
-0.071, 6.043e-4
-0.070, 6.049e-4
-0.069, 6.041e-4
-0.068, 6.033e-4
-0.067, 6.046e-4
-0.066, 6.043e-4
-0.065, 6.044e-4
-0.064, 6.054e-4
-0.063, 6.059e-4
-0.062, 6.066e-4
-0.061, 6.072e-4
-0.060, 6.064e-4
-0.059, 6.063e-4
-0.058, 6.072e-4
-0.057, 6.073e-4
-0.056, 6.067e-4
-0.055, 6.082e-4
-0.054, 6.088e-4
-0.053, 6.089e-4
-0.052, 6.079e-4
-0.051, 6.077e-4
-0.050, 6.084e-4
-0.049, 6.073e-4
-0.048, 6.074e-4
-0.047, 6.082e-4
-0.046, 6.099e-4
-0.045, 6.103e-4
-0.044, 6.090e-4
-0.043, 6.093e-4
-0.042, 6.093e-4
-0.041, 6.088e-4
-0.040, 6.088e-4
-0.039, 6.096e-4
-0.038, 6.100e-4
-0.037, 6.103e-4
-0.036, 6.119e-4
-0.035, 6.124e-4
-0.034, 6.100e-4
-0.033, 6.098e-4
-0.032, 6.101e-4
-0.031, 6.112e-4
-0.030, 6.117e-4
-0.029, 6.128e-4
-0.028, 6.132e-4
-0.027, 6.128e-4
-0.026, 6.133e-4
-0.025, 6.130e-4
-0.024, 6.132e-4
-0.023, 6.140e-4
-0.022, 6.138e-4
-0.021, 6.150e-4
-0.020, 6.147e-4
-0.019, 6.145e-4
-0.018, 6.153e-4
-0.017, 6.163e-4
-0.016, 6.161e-4
-0.015, 6.154e-4
-0.014, 6.155e-4
-0.013, 6.154e-4
-0.012, 6.164e-4
-0.011, 6.159e-4
-0.010, 6.152e-4
-0.009, 6.141e-4
-0.008, 6.146e-4
-0.007, 6.144e-4
-0.006, 6.153e-4
-0.005, 6.157e-4
-0.004, 6.161e-4
-0.003, 6.158e-4
-0.002, 6.161e-4
-0.001, 6.161e-4
-0.000, 6.145e-4
0.001, 6.146e-4
0.002, 6.150e-4
0.003, 6.158e-4
0.004, 6.171e-4
0.005, 6.172e-4
0.006, 6.165e-4
0.007, 6.171e-4
0.008, 6.157e-4
0.009, 6.174e-4
0.010, 6.184e-4
0.011, 6.164e-4
0.012, 6.173e-4
0.013, 6.160e-4
0.014, 6.166e-4
0.015, 6.162e-4
0.016, 6.168e-4
0.017, 6.172e-4
0.018, 6.176e-4
0.019, 6.181e-4
0.020, 6.184e-4
0.021, 6.186e-4
0.022, 6.185e-4
0.023, 6.173e-4
0.024, 6.182e-4
0.025, 6.184e-4
0.026, 6.179e-4
0.027, 6.178e-4
0.028, 6.177e-4
0.029, 6.173e-4
0.030, 6.177e-4
0.031, 6.178e-4
0.032, 6.182e-4
0.033, 6.175e-4
0.034, 6.176e-4
0.035, 6.187e-4
0.036, 6.186e-4
0.037, 6.187e-4
0.038, 6.188e-4
0.039, 6.181e-4
0.040, 6.190e-4
0.041, 6.209e-4
0.042, 6.215e-4
0.043, 6.196e-4
0.044, 6.174e-4
0.045, 6.184e-4
0.046, 6.202e-4
0.047, 6.201e-4
0.048, 6.192e-4
0.049, 6.191e-4
0.050, 6.189e-4
0.051, 6.181e-4
0.052, 6.178e-4
0.053, 6.201e-4
0.054, 6.197e-4
0.055, 6.196e-4
0.056, 6.245e-4
0.057, 6.217e-4
0.058, 6.190e-4
0.059, 6.187e-4
0.060, 6.189e-4
0.061, 6.187e-4
0.062, 6.192e-4
0.063, 6.208e-4
0.064, 6.205e-4
0.065, 6.199e-4
0.066, 6.203e-4
0.067, 6.203e-4
0.068, 6.201e-4
0.069, 6.208e-4
0.070, 6.198e-4
0.071, 6.209e-4
0.072, 6.208e-4
0.073, 6.205e-4
0.074, 6.206e-4
0.075, 6.192e-4
0.076, 6.189e-4
0.077, 6.178e-4
0.078, 6.190e-4
0.079, 6.201e-4
0.080, 6.178e-4
0.081, 6.191e-4
0.082, 6.186e-4
0.083, 6.174e-4
0.084, 6.182e-4
0.085, 6.198e-4
0.086, 6.197e-4
0.087, 6.199e-4
0.088, 6.200e-4
0.089, 6.200e-4
0.090, 6.202e-4
0.091, 6.202e-4
0.092, 6.202e-4
0.093, 6.206e-4
0.094, 6.216e-4
0.095, 6.203e-4
0.096, 6.197e-4
0.097, 6.196e-4
0.098, 6.187e-4
0.099, 6.191e-4
0.100, 6.188e-4
0.101, 6.182e-4
0.102, 6.197e-4
0.103, 6.196e-4
0.104, 6.178e-4
0.105, 6.180e-4
0.106, 6.189e-4
0.107, 6.221e-4
0.108, 6.190e-4
0.109, 6.169e-4
0.110, 6.182e-4
0.111, 6.172e-4
0.112, 6.177e-4
0.113, 6.187e-4
0.114, 6.188e-4
0.115, 6.188e-4
0.116, 6.179e-4
0.117, 6.183e-4
0.118, 6.194e-4
0.119, 6.194e-4
0.120, 6.186e-4
0.121, 6.181e-4
0.122, 6.182e-4
0.123, 6.181e-4
0.124, 6.172e-4
0.125, 6.177e-4
0.126, 6.174e-4
0.127, 6.172e-4
0.128, 6.178e-4
0.129, 6.175e-4
0.130, 6.175e-4
0.131, 6.181e-4
0.132, 6.178e-4
0.133, 6.172e-4
0.134, 6.176e-4
0.135, 6.182e-4
0.136, 6.197e-4
0.137, 6.190e-4
0.138, 6.180e-4
0.139, 6.174e-4
0.140, 6.181e-4
0.141, 6.194e-4
0.142, 6.202e-4
0.143, 6.197e-4
0.144, 6.199e-4
0.145, 6.183e-4
0.146, 6.154e-4
0.147, 6.184e-4
0.148, 6.186e-4
0.149, 6.152e-4
0.150, 6.175e-4
0.151, 6.160e-4
0.152, 6.166e-4
0.153, 6.181e-4
0.154, 6.180e-4
0.155, 6.184e-4
0.156, 6.172e-4
0.157, 6.178e-4
0.158, 6.177e-4
0.159, 6.167e-4
0.160, 6.158e-4
0.161, 6.156e-4
0.162, 6.157e-4
0.163, 6.157e-4
0.164, 6.166e-4
0.165, 6.169e-4
0.166, 6.172e-4
0.167, 6.156e-4
0.168, 6.158e-4
0.169, 6.168e-4
0.170, 6.165e-4
0.171, 6.160e-4
0.172, 6.154e-4
0.173, 6.165e-4
0.174, 6.176e-4
0.175, 6.167e-4
0.176, 6.153e-4
0.177, 6.162e-4
0.178, 6.160e-4
0.179, 6.163e-4
0.180, 6.153e-4
0.181, 6.157e-4
0.182, 6.167e-4
0.183, 6.180e-4
0.184, 6.167e-4
0.185, 6.158e-4
0.186, 6.174e-4
0.187, 6.169e-4
0.188, 6.178e-4
0.189, 6.172e-4
0.190, 6.169e-4
0.191, 6.161e-4
0.192, 6.167e-4
0.193, 6.177e-4
0.194, 6.163e-4
0.195, 6.159e-4
0.196, 6.162e-4
0.197, 6.153e-4
0.198, 6.154e-4
0.199, 6.152e-4
0.200, 6.148e-4
0.201, 6.158e-4
0.202, 6.151e-4
0.203, 6.148e-4
0.204, 6.156e-4
0.205, 6.175e-4
0.206, 6.181e-4
0.207, 6.155e-4
0.208, 6.148e-4
0.209, 6.148e-4
0.210, 6.153e-4
0.211, 6.160e-4
0.212, 6.160e-4
0.213, 6.174e-4
0.214, 6.166e-4
0.215, 6.155e-4
0.216, 6.144e-4
0.217, 6.143e-4
0.218, 6.149e-4
0.219, 6.151e-4
0.220, 6.171e-4
0.221, 6.124e-4
0.222, 6.139e-4
0.223, 6.139e-4
0.224, 6.155e-4
0.225, 6.159e-4
0.226, 6.148e-4
0.227, 6.133e-4
0.228, 6.132e-4
0.229, 6.144e-4
0.230, 6.138e-4
0.231, 6.145e-4
0.232, 6.123e-4
0.233, 6.137e-4
0.234, 6.144e-4
0.235, 6.141e-4
0.236, 6.134e-4
0.237, 6.154e-4
0.238, 6.169e-4
0.239, 6.136e-4
0.240, 6.137e-4
0.241, 6.157e-4
0.242, 6.144e-4
0.243, 6.130e-4
0.244, 6.161e-4
0.245, 6.148e-4
0.246, 6.115e-4
0.247, 6.108e-4
0.248, 6.129e-4
0.249, 6.123e-4
0.250, 6.126e-4
0.251, 6.143e-4
0.252, 6.121e-4
0.253, 6.102e-4
0.254, 6.125e-4
0.255, 6.120e-4
0.256, 6.111e-4
0.257, 6.116e-4
0.258, 6.124e-4
0.259, 6.125e-4
0.260, 6.149e-4
0.261, 6.163e-4
0.262, 6.134e-4
0.263, 6.134e-4
0.264, 6.116e-4
0.265, 6.110e-4
0.266, 6.109e-4
0.267, 6.114e-4
0.268, 6.102e-4
0.269, 6.093e-4
0.270, 6.120e-4
0.271, 6.112e-4
0.272, 6.092e-4
0.273, 6.095e-4
0.274, 6.092e-4
0.275, 6.089e-4
0.276, 6.104e-4
0.277, 6.104e-4
0.278, 6.102e-4
0.279, 6.091e-4
0.280, 6.100e-4
0.281, 6.097e-4
0.282, 6.092e-4
0.283, 6.073e-4
0.284, 6.088e-4
0.285, 6.087e-4
0.286, 6.083e-4
0.287, 6.089e-4
0.288, 6.088e-4
0.289, 6.063e-4
0.290, 6.082e-4
0.291, 6.088e-4
0.292, 6.099e-4
0.293, 6.092e-4
0.294, 6.083e-4
0.295, 6.085e-4
0.296, 6.091e-4
0.297, 6.091e-4
0.298, 6.075e-4
0.299, 6.072e-4
0.300, 6.069e-4
0.301, 6.109e-4
0.302, 6.077e-4
0.303, 6.061e-4
0.304, 6.062e-4
0.305, 6.068e-4
0.306, 6.058e-4
0.307, 6.061e-4
0.308, 6.066e-4
0.309, 6.060e-4
0.310, 6.058e-4
0.311, 6.065e-4
0.312, 6.077e-4
0.313, 6.058e-4
0.314, 6.066e-4
0.315, 6.058e-4
0.316, 6.074e-4
0.317, 6.038e-4
0.318, 6.041e-4
0.319, 6.037e-4
0.320, 6.034e-4
0.321, 6.044e-4
0.322, 6.054e-4
0.323, 6.040e-4
0.324, 6.063e-4
0.325, 6.035e-4
0.326, 6.032e-4
0.327, 6.024e-4
0.328, 6.024e-4
0.329, 6.018e-4
0.330, 6.019e-4
0.331, 6.031e-4
0.332, 6.032e-4
0.333, 6.037e-4
0.334, 6.019e-4
0.335, 6.020e-4
0.336, 6.018e-4
0.337, 6.027e-4
0.338, 6.005e-4
0.339, 5.997e-4
0.340, 6.004e-4
0.341, 6.002e-4
0.342, 5.979e-4
0.343, 5.979e-4
0.344, 5.998e-4
0.345, 5.988e-4
0.346, 5.985e-4
0.347, 5.989e-4
0.348, 5.979e-4
0.349, 5.969e-4
0.350, 5.980e-4
0.351, 5.980e-4
0.352, 5.976e-4
0.353, 5.985e-4
0.354, 5.971e-4
0.355, 5.970e-4
0.356, 5.969e-4
0.357, 5.972e-4
0.358, 5.966e-4
0.359, 5.967e-4
0.360, 5.967e-4
0.361, 5.970e-4
0.362, 5.973e-4
0.363, 5.971e-4
0.364, 5.950e-4
0.365, 5.947e-4
0.366, 5.940e-4
0.367, 5.952e-4
0.368, 5.959e-4
0.369, 5.946e-4
0.370, 5.939e-4
0.371, 5.933e-4
0.372, 5.941e-4
0.373, 5.937e-4
0.374, 5.939e-4
0.375, 5.935e-4
0.376, 5.938e-4
0.377, 5.925e-4
0.378, 5.924e-4
0.379, 5.937e-4
0.380, 5.936e-4
0.381, 5.942e-4
0.382, 5.932e-4
0.383, 5.923e-4
0.384, 5.907e-4
0.385, 5.914e-4
0.386, 5.926e-4
0.387, 5.927e-4
0.388, 5.907e-4
0.389, 5.899e-4
0.390, 5.895e-4
0.391, 5.896e-4
0.392, 5.900e-4
0.393, 5.887e-4
0.394, 5.900e-4
0.395, 5.900e-4
0.396, 5.882e-4
0.397, 5.878e-4
0.398, 5.874e-4
0.399, 5.861e-4
0.400, 5.864e-4
0.401, 5.858e-4
0.402, 5.856e-4
0.403, 5.876e-4
0.404, 5.836e-4
0.405, 5.838e-4
0.406, 5.860e-4
0.407, 5.852e-4
0.408, 5.865e-4
0.409, 5.846e-4
0.410, 5.841e-4
0.411, 5.848e-4
0.412, 5.844e-4
0.413, 5.827e-4
0.414, 5.825e-4
0.415, 5.818e-4
0.416, 5.814e-4
0.417, 5.839e-4
0.418, 5.829e-4
0.419, 5.802e-4
0.420, 5.789e-4
0.421, 5.791e-4
0.422, 5.735e-4
0.423, 5.780e-4
0.424, 5.817e-4
0.425, 5.777e-4
0.426, 5.775e-4
0.427, 5.774e-4
0.428, 5.761e-4
0.429, 5.752e-4
0.430, 5.758e-4
0.431, 5.756e-4
0.432, 5.736e-4
0.433, 5.732e-4
0.434, 5.735e-4
0.435, 5.730e-4
0.436, 5.726e-4
0.437, 5.707e-4
0.438, 5.688e-4
0.439, 5.694e-4
0.440, 5.695e-4
0.441, 5.701e-4
0.442, 5.694e-4
0.443, 5.685e-4
0.444, 5.657e-4
0.445, 5.665e-4
0.446, 5.653e-4
0.447, 5.654e-4
0.448, 5.634e-4
0.449, 5.632e-4
0.450, 5.625e-4
0.451, 5.618e-4
0.452, 5.612e-4
0.453, 5.611e-4
0.454, 5.602e-4
0.455, 5.588e-4
0.456, 5.581e-4
0.457, 5.578e-4
0.458, 5.571e-4
0.459, 5.559e-4
0.460, 5.552e-4
0.461, 5.552e-4
0.462, 5.536e-4
0.463, 5.533e-4
0.464, 5.526e-4
0.465, 5.515e-4
0.466, 5.502e-4
0.467, 5.487e-4
0.468, 5.487e-4
0.469, 5.485e-4
0.470, 5.481e-4
0.471, 5.467e-4
0.472, 5.456e-4
0.473, 5.446e-4
0.474, 5.431e-4
0.475, 5.419e-4
0.476, 5.414e-4
0.477, 5.412e-4
0.478, 5.414e-4
0.479, 5.395e-4
0.480, 5.382e-4
0.481, 5.365e-4
0.482, 5.349e-4
0.483, 5.357e-4
0.484, 5.338e-4
0.485, 5.330e-4
0.486, 5.316e-4
0.487, 5.306e-4
0.488, 5.298e-4
0.489, 5.278e-4
0.490, 5.261e-4
0.491, 5.248e-4
0.492, 5.238e-4
0.493, 5.235e-4
0.494, 5.216e-4
0.495, 5.201e-4
0.496, 5.190e-4
0.497, 5.178e-4
0.498, 5.150e-4
0.499, 5.133e-4
0.500, 5.111e-4
0.501, 5.114e-4
0.502, 5.104e-4
0.503, 5.077e-4
0.504, 5.069e-4
0.505, 5.055e-4
0.506, 5.038e-4
0.507, 5.018e-4
0.508, 5.000e-4
0.509, 4.984e-4
0.510, 4.973e-4
0.511, 4.958e-4
0.512, 4.933e-4
0.513, 4.926e-4
0.514, 4.916e-4
0.515, 4.913e-4
0.516, 4.906e-4
0.517, 4.868e-4
0.518, 4.842e-4
0.519, 4.825e-4
0.520, 4.793e-4
0.521, 4.781e-4
0.522, 4.745e-4
0.523, 4.719e-4
0.524, 4.710e-4
0.525, 4.708e-4
0.526, 4.689e-4
0.527, 4.652e-4
0.528, 4.630e-4
0.529, 4.612e-4
0.530, 4.587e-4
0.531, 4.557e-4
0.532, 4.535e-4
0.533, 4.512e-4
0.534, 4.489e-4
0.535, 4.463e-4
0.536, 4.440e-4
0.537, 4.415e-4
0.538, 4.380e-4
0.539, 4.356e-4
0.540, 4.332e-4
0.541, 4.310e-4
0.542, 4.288e-4
0.543, 4.259e-4
0.544, 4.229e-4
0.545, 4.199e-4
0.546, 4.169e-4
0.547, 4.139e-4
0.548, 4.110e-4
0.549, 4.076e-4
0.550, 4.048e-4
0.551, 4.005e-4
0.552, 3.970e-4
0.553, 3.944e-4
0.554, 3.917e-4
0.555, 3.887e-4
0.556, 3.848e-4
0.557, 3.811e-4
0.558, 3.773e-4
0.559, 3.742e-4
0.560, 3.712e-4
0.561, 3.674e-4
0.562, 3.643e-4
0.563, 3.594e-4
0.564, 3.552e-4
0.565, 3.514e-4
0.566, 3.476e-4
0.567, 3.441e-4
0.568, 3.406e-4
0.569, 3.368e-4
0.570, 3.320e-4
0.571, 3.281e-4
0.572, 3.239e-4
0.573, 3.198e-4
0.574, 3.158e-4
0.575, 3.117e-4
0.576, 3.077e-4
0.577, 3.036e-4
0.578, 2.991e-4
0.579, 2.948e-4
0.580, 2.904e-4
0.581, 2.863e-4
0.582, 2.818e-4
0.583, 2.774e-4
0.584, 2.730e-4
0.585, 2.685e-4
0.586, 2.641e-4
0.587, 2.597e-4
0.588, 2.551e-4
0.589, 2.506e-4
0.590, 2.464e-4
0.591, 2.417e-4
0.592, 2.372e-4
0.593, 2.328e-4
0.594, 2.284e-4
0.595, 2.240e-4
0.596, 2.194e-4
0.597, 2.150e-4
0.598, 2.106e-4
0.599, 2.063e-4
0.600, 2.016e-4
0.601, 1.971e-4
0.602, 1.926e-4
0.603, 1.882e-4
0.604, 1.838e-4
0.605, 1.794e-4
0.606, 1.751e-4
0.607, 1.707e-4
0.608, 1.664e-4
0.609, 1.620e-4
0.610, 1.577e-4
0.611, 1.536e-4
0.612, 1.494e-4
0.613, 1.453e-4
0.614, 1.413e-4
0.615, 1.372e-4
0.616, 1.332e-4
0.617, 1.292e-4
0.618, 1.253e-4
0.619, 1.215e-4
0.620, 1.178e-4
0.621, 1.140e-4
0.622, 1.103e-4
0.623, 1.065e-4
0.624, 1.029e-4
0.625, 9.934e-5
0.626, 9.576e-5
0.627, 9.223e-5
0.628, 8.879e-5
0.629, 8.559e-5
0.630, 8.215e-5
0.631, 7.889e-5
0.632, 7.577e-5
0.633, 7.257e-5
0.634, 6.950e-5
0.635, 6.647e-5
0.636, 6.346e-5
0.637, 6.065e-5
0.638, 5.784e-5
0.639, 5.505e-5
0.640, 5.230e-5
0.641, 4.962e-5
0.642, 4.711e-5
0.643, 4.458e-5
0.644, 4.205e-5
0.645, 3.972e-5
0.646, 3.734e-5
0.647, 3.503e-5
0.648, 3.286e-5
0.649, 3.066e-5
0.650, 2.851e-5
0.651, 2.645e-5
0.652, 2.456e-5
0.653, 2.265e-5
0.654, 2.080e-5
0.655, 1.896e-5
0.656, 1.720e-5
0.657, 1.544e-5
0.658, 1.378e-5
0.659, 1.216e-5
0.660, 1.059e-5
0.661, 9.071e-6
0.662, 7.536e-6
0.663, 6.112e-6
0.664, 4.795e-6
0.665, 3.363e-6
0.666, 1.955e-6
0.667, 8.362e-7
0.668, -3.996e-7
0.669, -1.534e-6
0.670, -2.695e-6
0.671, -3.785e-6
0.672, -4.832e-6
0.673, -5.786e-6
0.674, -6.726e-6
0.675, -7.658e-6
0.676, -8.648e-6
0.677, -9.472e-6
0.678, -1.034e-5
0.679, -1.119e-5
0.680, -1.189e-5
0.681, -1.268e-5
0.682, -1.345e-5
0.683, -1.403e-5
0.684, -1.470e-5
0.685, -1.537e-5
0.686, -1.602e-5
0.687, -1.666e-5
0.688, -1.718e-5
0.689, -1.770e-5
0.690, -1.825e-5
0.691, -1.879e-5
0.692, -1.934e-5
0.693, -1.976e-5
0.694, -2.026e-5
0.695, -2.064e-5
0.696, -2.102e-5
0.697, -2.154e-5
0.698, -2.197e-5
0.699, -2.224e-5
0.700, -2.267e-5
0.701, -2.305e-5
0.702, -2.335e-5
0.703, -2.371e-5
0.704, -2.401e-5
0.705, -2.429e-5
0.706, -2.459e-5
0.707, -2.490e-5
0.708, -2.513e-5
0.709, -2.537e-5
0.710, -2.568e-5
0.711, -2.593e-5
0.712, -2.618e-5
0.713, -2.643e-5
0.714, -2.656e-5
0.715, -2.683e-5
0.716, -2.706e-5
0.717, -2.730e-5
0.718, -2.740e-5
0.719, -2.770e-5
0.720, -2.782e-5
0.721, -2.796e-5
0.722, -2.820e-5
0.723, -2.837e-5
0.724, -2.850e-5
0.725, -2.862e-5
0.726, -2.879e-5
0.727, -2.893e-5
0.728, -2.907e-5
0.729, -2.922e-5
0.730, -2.937e-5
0.731, -2.949e-5
0.732, -2.965e-5
0.733, -2.973e-5
0.734, -2.986e-5
0.735, -2.996e-5
0.736, -3.011e-5
0.737, -3.016e-5
0.738, -3.028e-5
0.739, -3.035e-5
0.740, -3.049e-5
0.741, -3.061e-5
0.742, -3.074e-5
0.743, -3.090e-5
0.744, -3.093e-5
0.745, -3.101e-5
0.746, -3.113e-5
0.747, -3.120e-5
0.748, -3.134e-5
0.749, -3.145e-5
0.750, -3.156e-5
0.751, -3.165e-5
0.752, -3.174e-5
0.753, -3.184e-5
0.754, -3.184e-5
0.755, -3.192e-5
0.756, -3.203e-5
0.757, -3.211e-5
0.758, -3.222e-5
0.759, -3.225e-5
0.760, -3.226e-5
0.761, -3.240e-5
0.762, -3.249e-5
0.763, -3.248e-5
0.764, -3.262e-5
0.765, -3.267e-5
0.766, -3.274e-5
0.767, -3.280e-5
0.768, -3.299e-5
0.769, -3.299e-5
0.770, -3.307e-5
0.771, -3.315e-5
0.772, -3.323e-5
0.773, -3.333e-5
0.774, -3.336e-5
0.775, -3.348e-5
0.776, -3.346e-5
0.777, -3.354e-5
0.778, -3.363e-5
0.779, -3.363e-5
0.780, -3.374e-5
0.781, -3.383e-5
0.782, -3.379e-5
0.783, -3.392e-5
0.784, -3.397e-5
0.785, -3.401e-5
0.786, -3.407e-5
0.787, -3.411e-5
0.788, -3.424e-5
0.789, -3.423e-5
0.790, -3.429e-5
0.791, -3.446e-5
0.792, -3.445e-5
0.793, -3.454e-5
0.794, -3.461e-5
0.795, -3.458e-5
0.796, -3.468e-5
0.797, -3.470e-5
0.798, -3.478e-5
0.799, -3.490e-5
