May 6, 2023   18:09:24
Linear Sweep Voltammetry
File: d:\Data Source:  Experiment
Instrument Model:  CHI750E
Header: 
Note: 

Init E (V) = -0.1
Final E (V) = 0.8
Scan Rate (V/s) = 0.01
Sample Interval (V) = 0.001
Quiet Time (sec) = 2
Sensitivity (A/V) = 0.001

Results:

Channel 1:

Potential/V, Current/A

-0.100, 5.114e-5
-0.099, 3.075e-5
-0.098, 1.816e-5
-0.097, 1.015e-5
-0.096, 4.860e-6
-0.095, 9.946e-7
-0.094, -1.884e-6
-0.093, -4.105e-6
-0.092, -5.745e-6
-0.091, -6.957e-6
-0.090, -8.187e-6
-0.089, -9.201e-6
-0.088, -9.812e-6
-0.087, -1.042e-5
-0.086, -1.086e-5
-0.085, -1.116e-5
-0.084, -1.143e-5
-0.083, -1.158e-5
-0.082, -1.158e-5
-0.081, -1.155e-5
-0.080, -1.138e-5
-0.079, -1.133e-5
-0.078, -1.111e-5
-0.077, -1.091e-5
-0.076, -1.072e-5
-0.075, -1.030e-5
-0.074, -1.002e-5
-0.073, -9.700e-6
-0.072, -9.285e-6
-0.071, -8.996e-6
-0.070, -8.722e-6
-0.069, -8.183e-6
-0.068, -7.788e-6
-0.067, -7.445e-6
-0.066, -7.028e-6
-0.065, -6.608e-6
-0.064, -6.198e-6
-0.063, -5.796e-6
-0.062, -5.303e-6
-0.061, -4.898e-6
-0.060, -4.690e-6
-0.059, -4.294e-6
-0.058, -4.004e-6
-0.057, -3.748e-6
-0.056, -3.240e-6
-0.055, -2.981e-6
-0.054, -2.680e-6
-0.053, -2.269e-6
-0.052, -1.986e-6
-0.051, -2.025e-6
-0.050, -1.506e-6
-0.049, -1.200e-6
-0.048, -9.205e-7
-0.047, -7.881e-7
-0.046, -5.982e-7
-0.045, -4.193e-7
-0.044, -2.341e-7
-0.043, 1.174e-7
-0.042, 3.019e-7
-0.041, 4.272e-7
-0.040, 6.376e-7
-0.039, 7.534e-7
-0.038, 9.481e-7
-0.037, 1.300e-6
-0.036, 1.438e-6
-0.035, 1.724e-6
-0.034, 1.991e-6
-0.033, 2.165e-6
-0.032, 2.383e-6
-0.031, 2.698e-6
-0.030, 2.976e-6
-0.029, 3.356e-6
-0.028, 3.714e-6
-0.027, 4.128e-6
-0.026, 4.382e-6
-0.025, 4.767e-6
-0.024, 5.249e-6
-0.023, 5.591e-6
-0.022, 6.061e-6
-0.021, 6.538e-6
-0.020, 6.935e-6
-0.019, 7.270e-6
-0.018, 7.697e-6
-0.017, 8.059e-6
-0.016, 8.515e-6
-0.015, 8.985e-6
-0.014, 9.370e-6
-0.013, 9.601e-6
-0.012, 9.952e-6
-0.011, 1.044e-5
-0.010, 1.077e-5
-0.009, 1.110e-5
-0.008, 1.156e-5
-0.007, 1.186e-5
-0.006, 1.206e-5
-0.005, 1.254e-5
-0.004, 1.281e-5
-0.003, 1.317e-5
-0.002, 1.351e-5
-0.001, 1.374e-5
-0.000, 1.357e-5
0.001, 1.420e-5
0.002, 1.459e-5
0.003, 1.491e-5
0.004, 1.504e-5
0.005, 1.536e-5
0.006, 1.558e-5
0.007, 1.574e-5
0.008, 1.608e-5
0.009, 1.616e-5
0.010, 1.635e-5
0.011, 1.660e-5
0.012, 1.673e-5
0.013, 1.698e-5
0.014, 1.716e-5
0.015, 1.726e-5
0.016, 1.744e-5
0.017, 1.762e-5
0.018, 1.770e-5
0.019, 1.779e-5
0.020, 1.794e-5
0.021, 1.817e-5
0.022, 1.831e-5
0.023, 1.829e-5
0.024, 1.853e-5
0.025, 1.865e-5
0.026, 1.871e-5
0.027, 1.897e-5
0.028, 1.899e-5
0.029, 1.904e-5
0.030, 1.914e-5
0.031, 1.918e-5
0.032, 1.930e-5
0.033, 1.937e-5
0.034, 1.937e-5
0.035, 1.957e-5
0.036, 1.964e-5
0.037, 1.969e-5
0.038, 1.976e-5
0.039, 1.981e-5
0.040, 1.991e-5
0.041, 1.987e-5
0.042, 1.989e-5
0.043, 2.006e-5
0.044, 2.008e-5
0.045, 2.017e-5
0.046, 2.018e-5
0.047, 2.016e-5
0.048, 2.028e-5
0.049, 2.026e-5
0.050, 2.027e-5
0.051, 2.016e-5
0.052, 2.039e-5
0.053, 2.058e-5
0.054, 2.062e-5
0.055, 2.060e-5
0.056, 2.062e-5
0.057, 2.062e-5
0.058, 2.067e-5
0.059, 2.076e-5
0.060, 2.070e-5
0.061, 2.070e-5
0.062, 2.069e-5
0.063, 2.065e-5
0.064, 2.079e-5
0.065, 2.078e-5
0.066, 2.073e-5
0.067, 2.076e-5
0.068, 2.070e-5
0.069, 2.074e-5
0.070, 2.080e-5
0.071, 2.076e-5
0.072, 2.085e-5
0.073, 2.083e-5
0.074, 2.080e-5
0.075, 2.081e-5
0.076, 2.081e-5
0.077, 2.082e-5
0.078, 2.087e-5
0.079, 2.079e-5
0.080, 2.087e-5
0.081, 2.090e-5
0.082, 2.095e-5
0.083, 2.086e-5
0.084, 2.076e-5
0.085, 2.084e-5
0.086, 2.088e-5
0.087, 2.080e-5
0.088, 2.088e-5
0.089, 2.085e-5
0.090, 2.080e-5
0.091, 2.085e-5
0.092, 2.082e-5
0.093, 2.082e-5
0.094, 2.083e-5
0.095, 2.082e-5
0.096, 2.082e-5
0.097, 2.089e-5
0.098, 2.083e-5
0.099, 2.080e-5
0.100, 2.072e-5
0.101, 2.072e-5
0.102, 2.062e-5
0.103, 2.062e-5
0.104, 2.067e-5
0.105, 2.061e-5
0.106, 2.058e-5
0.107, 2.067e-5
0.108, 2.056e-5
0.109, 2.064e-5
0.110, 2.073e-5
0.111, 2.069e-5
0.112, 2.071e-5
0.113, 2.053e-5
0.114, 2.042e-5
0.115, 2.046e-5
0.116, 2.043e-5
0.117, 2.056e-5
0.118, 2.053e-5
0.119, 2.039e-5
0.120, 2.038e-5
0.121, 2.037e-5
0.122, 2.033e-5
0.123, 2.035e-5
0.124, 2.033e-5
0.125, 2.035e-5
0.126, 2.035e-5
0.127, 2.026e-5
0.128, 2.028e-5
0.129, 2.025e-5
0.130, 2.023e-5
0.131, 2.022e-5
0.132, 2.019e-5
0.133, 2.023e-5
0.134, 2.017e-5
0.135, 2.019e-5
0.136, 2.016e-5
0.137, 2.011e-5
0.138, 2.006e-5
0.139, 2.009e-5
0.140, 1.996e-5
0.141, 2.004e-5
0.142, 1.998e-5
0.143, 1.996e-5
0.144, 2.000e-5
0.145, 1.996e-5
0.146, 1.984e-5
0.147, 1.973e-5
0.148, 1.974e-5
0.149, 1.979e-5
0.150, 1.966e-5
0.151, 1.965e-5
0.152, 1.976e-5
0.153, 1.958e-5
0.154, 1.957e-5
0.155, 1.966e-5
0.156, 1.957e-5
0.157, 1.963e-5
0.158, 1.965e-5
0.159, 1.959e-5
0.160, 1.954e-5
0.161, 1.950e-5
0.162, 1.945e-5
0.163, 1.953e-5
0.164, 1.947e-5
0.165, 1.946e-5
0.166, 1.940e-5
0.167, 1.935e-5
0.168, 1.948e-5
0.169, 1.934e-5
0.170, 1.929e-5
0.171, 1.927e-5
0.172, 1.918e-5
0.173, 1.924e-5
0.174, 1.925e-5
0.175, 1.917e-5
0.176, 1.919e-5
0.177, 1.918e-5
0.178, 1.922e-5
0.179, 1.921e-5
0.180, 1.915e-5
0.181, 1.918e-5
0.182, 1.919e-5
0.183, 1.904e-5
0.184, 1.908e-5
0.185, 1.903e-5
0.186, 1.894e-5
0.187, 1.903e-5
0.188, 1.888e-5
0.189, 1.892e-5
0.190, 1.892e-5
0.191, 1.901e-5
0.192, 1.892e-5
0.193, 1.891e-5
0.194, 1.889e-5
0.195, 1.891e-5
0.196, 1.886e-5
0.197, 1.887e-5
0.198, 1.880e-5
0.199, 1.872e-5
0.200, 1.876e-5
0.201, 1.875e-5
0.202, 1.873e-5
0.203, 1.869e-5
0.204, 1.861e-5
0.205, 1.859e-5
0.206, 1.869e-5
0.207, 1.862e-5
0.208, 1.862e-5
0.209, 1.859e-5
0.210, 1.861e-5
0.211, 1.854e-5
0.212, 1.853e-5
0.213, 1.861e-5
0.214, 1.864e-5
0.215, 1.847e-5
0.216, 1.845e-5
0.217, 1.843e-5
0.218, 1.847e-5
0.219, 1.848e-5
0.220, 1.841e-5
0.221, 1.843e-5
0.222, 1.836e-5
0.223, 1.835e-5
0.224, 1.840e-5
0.225, 1.840e-5
0.226, 1.838e-5
0.227, 1.837e-5
0.228, 1.832e-5
0.229, 1.836e-5
0.230, 1.827e-5
0.231, 1.817e-5
0.232, 1.824e-5
0.233, 1.816e-5
0.234, 1.819e-5
0.235, 1.819e-5
0.236, 1.817e-5
0.237, 1.821e-5
0.238, 1.819e-5
0.239, 1.811e-5
0.240, 1.823e-5
0.241, 1.818e-5
0.242, 1.812e-5
0.243, 1.820e-5
0.244, 1.815e-5
0.245, 1.816e-5
0.246, 1.813e-5
0.247, 1.804e-5
0.248, 1.813e-5
0.249, 1.802e-5
0.250, 1.797e-5
0.251, 1.802e-5
0.252, 1.802e-5
0.253, 1.802e-5
0.254, 1.806e-5
0.255, 1.807e-5
0.256, 1.793e-5
0.257, 1.795e-5
0.258, 1.794e-5
0.259, 1.794e-5
0.260, 1.788e-5
0.261, 1.784e-5
0.262, 1.781e-5
0.263, 1.777e-5
0.264, 1.790e-5
0.265, 1.782e-5
0.266, 1.782e-5
0.267, 1.788e-5
0.268, 1.771e-5
0.269, 1.777e-5
0.270, 1.786e-5
0.271, 1.785e-5
0.272, 1.786e-5
0.273, 1.779e-5
0.274, 1.776e-5
0.275, 1.770e-5
0.276, 1.765e-5
0.277, 1.764e-5
0.278, 1.760e-5
0.279, 1.765e-5
0.280, 1.772e-5
0.281, 1.759e-5
0.282, 1.762e-5
0.283, 1.764e-5
0.284, 1.756e-5
0.285, 1.756e-5
0.286, 1.756e-5
0.287, 1.750e-5
0.288, 1.751e-5
0.289, 1.754e-5
0.290, 1.751e-5
0.291, 1.747e-5
0.292, 1.743e-5
0.293, 1.743e-5
0.294, 1.739e-5
0.295, 1.729e-5
0.296, 1.736e-5
0.297, 1.728e-5
0.298, 1.732e-5
0.299, 1.729e-5
0.300, 1.729e-5
0.301, 1.735e-5
0.302, 1.741e-5
0.303, 1.730e-5
0.304, 1.728e-5
0.305, 1.716e-5
0.306, 1.713e-5
0.307, 1.704e-5
0.308, 1.706e-5
0.309, 1.708e-5
0.310, 1.709e-5
0.311, 1.710e-5
0.312, 1.716e-5
0.313, 1.700e-5
0.314, 1.691e-5
0.315, 1.698e-5
0.316, 1.693e-5
0.317, 1.699e-5
0.318, 1.703e-5
0.319, 1.697e-5
0.320, 1.700e-5
0.321, 1.690e-5
0.322, 1.685e-5
0.323, 1.686e-5
0.324, 1.678e-5
0.325, 1.680e-5
0.326, 1.675e-5
0.327, 1.669e-5
0.328, 1.672e-5
0.329, 1.661e-5
0.330, 1.658e-5
0.331, 1.660e-5
0.332, 1.658e-5
0.333, 1.664e-5
0.334, 1.662e-5
0.335, 1.649e-5
0.336, 1.647e-5
0.337, 1.648e-5
0.338, 1.636e-5
0.339, 1.636e-5
0.340, 1.629e-5
0.341, 1.629e-5
0.342, 1.627e-5
0.343, 1.617e-5
0.344, 1.620e-5
0.345, 1.616e-5
0.346, 1.606e-5
0.347, 1.615e-5
0.348, 1.606e-5
0.349, 1.608e-5
0.350, 1.604e-5
0.351, 1.589e-5
0.352, 1.589e-5
0.353, 1.586e-5
0.354, 1.584e-5
0.355, 1.582e-5
0.356, 1.577e-5
0.357, 1.570e-5
0.358, 1.549e-5
0.359, 1.550e-5
0.360, 1.561e-5
0.361, 1.552e-5
0.362, 1.541e-5
0.363, 1.552e-5
0.364, 1.549e-5
0.365, 1.554e-5
0.366, 1.560e-5
0.367, 1.536e-5
0.368, 1.541e-5
0.369, 1.538e-5
0.370, 1.526e-5
0.371, 1.523e-5
0.372, 1.512e-5
0.373, 1.520e-5
0.374, 1.517e-5
0.375, 1.514e-5
0.376, 1.524e-5
0.377, 1.506e-5
0.378, 1.497e-5
0.379, 1.499e-5
0.380, 1.479e-5
0.381, 1.491e-5
0.382, 1.490e-5
0.383, 1.482e-5
0.384, 1.476e-5
0.385, 1.467e-5
0.386, 1.472e-5
0.387, 1.473e-5
0.388, 1.465e-5
0.389, 1.465e-5
0.390, 1.453e-5
0.391, 1.447e-5
0.392, 1.448e-5
0.393, 1.448e-5
0.394, 1.442e-5
0.395, 1.436e-5
0.396, 1.423e-5
0.397, 1.414e-5
0.398, 1.411e-5
0.399, 1.402e-5
0.400, 1.407e-5
0.401, 1.396e-5
0.402, 1.391e-5
0.403, 1.400e-5
0.404, 1.388e-5
0.405, 1.386e-5
0.406, 1.377e-5
0.407, 1.358e-5
0.408, 1.363e-5
0.409, 1.351e-5
0.410, 1.332e-5
0.411, 1.345e-5
0.412, 1.329e-5
0.413, 1.321e-5
0.414, 1.317e-5
0.415, 1.322e-5
0.416, 1.328e-5
0.417, 1.314e-5
0.418, 1.309e-5
0.419, 1.302e-5
0.420, 1.286e-5
0.421, 1.286e-5
0.422, 1.277e-5
0.423, 1.266e-5
0.424, 1.268e-5
0.425, 1.262e-5
0.426, 1.259e-5
0.427, 1.254e-5
0.428, 1.237e-5
0.429, 1.229e-5
0.430, 1.232e-5
0.431, 1.220e-5
0.432, 1.214e-5
0.433, 1.210e-5
0.434, 1.204e-5
0.435, 1.194e-5
0.436, 1.186e-5
0.437, 1.181e-5
0.438, 1.172e-5
0.439, 1.161e-5
0.440, 1.156e-5
0.441, 1.143e-5
0.442, 1.133e-5
0.443, 1.133e-5
0.444, 1.125e-5
0.445, 1.130e-5
0.446, 1.123e-5
0.447, 1.109e-5
0.448, 1.102e-5
0.449, 1.081e-5
0.450, 1.075e-5
0.451, 1.070e-5
0.452, 1.055e-5
0.453, 1.046e-5
0.454, 1.026e-5
0.455, 1.021e-5
0.456, 1.020e-5
0.457, 1.013e-5
0.458, 9.942e-6
0.459, 9.935e-6
0.460, 9.741e-6
0.461, 9.458e-6
0.462, 9.513e-6
0.463, 9.398e-6
0.464, 9.349e-6
0.465, 9.189e-6
0.466, 9.048e-6
0.467, 8.939e-6
0.468, 8.836e-6
0.469, 8.704e-6
0.470, 8.591e-6
0.471, 8.388e-6
0.472, 8.327e-6
0.473, 8.233e-6
0.474, 8.088e-6
0.475, 8.031e-6
0.476, 7.831e-6
0.477, 7.697e-6
0.478, 7.605e-6
0.479, 7.411e-6
0.480, 7.237e-6
0.481, 7.198e-6
0.482, 6.988e-6
0.483, 6.874e-6
0.484, 6.712e-6
0.485, 6.604e-6
0.486, 6.400e-6
0.487, 6.192e-6
0.488, 6.131e-6
0.489, 5.969e-6
0.490, 5.781e-6
0.491, 5.728e-6
0.492, 5.548e-6
0.493, 5.381e-6
0.494, 5.278e-6
0.495, 5.126e-6
0.496, 4.959e-6
0.497, 4.774e-6
0.498, 4.726e-6
0.499, 4.591e-6
0.500, 4.410e-6
0.501, 4.276e-6
0.502, 4.076e-6
0.503, 3.882e-6
0.504, 3.744e-6
0.505, 3.550e-6
0.506, 3.378e-6
0.507, 3.272e-6
0.508, 3.100e-6
0.509, 2.909e-6
0.510, 2.702e-6
0.511, 2.477e-6
0.512, 2.292e-6
0.513, 2.199e-6
0.514, 1.972e-6
0.515, 1.871e-6
0.516, 1.679e-6
0.517, 1.582e-6
0.518, 1.376e-6
0.519, 1.166e-6
0.520, 1.086e-6
0.521, 9.576e-7
0.522, 7.732e-7
0.523, 6.155e-7
0.524, 3.783e-7
0.525, 1.419e-7
0.526, -5.123e-8
0.527, -2.175e-7
0.528, -3.279e-7
0.529, -5.454e-7
0.530, -7.653e-7
0.531, -9.907e-7
0.532, -1.145e-6
0.533, -1.250e-6
0.534, -1.473e-6
0.535, -1.671e-6
0.536, -1.742e-6
0.537, -1.951e-6
0.538, -2.223e-6
0.539, -2.370e-6
0.540, -2.591e-6
0.541, -2.751e-6
0.542, -2.963e-6
0.543, -3.286e-6
0.544, -3.419e-6
0.545, -3.634e-6
0.546, -3.858e-6
0.547, -4.031e-6
0.548, -4.309e-6
0.549, -4.488e-6
0.550, -4.696e-6
0.551, -4.934e-6
0.552, -5.092e-6
0.553, -5.388e-6
0.554, -5.649e-6
0.555, -5.897e-6
0.556, -6.081e-6
0.557, -6.359e-6
0.558, -6.578e-6
0.559, -6.913e-6
0.560, -7.130e-6
0.561, -7.314e-6
0.562, -7.594e-6
0.563, -8.027e-6
0.564, -8.163e-6
0.565, -8.350e-6
0.566, -8.660e-6
0.567, -8.977e-6
0.568, -9.261e-6
0.569, -9.568e-6
0.570, -9.867e-6
0.571, -1.007e-5
0.572, -1.046e-5
0.573, -1.068e-5
0.574, -1.096e-5
0.575, -1.129e-5
0.576, -1.156e-5
0.577, -1.185e-5
0.578, -1.215e-5
0.579, -1.247e-5
0.580, -1.283e-5
0.581, -1.311e-5
0.582, -1.346e-5
0.583, -1.380e-5
0.584, -1.406e-5
0.585, -1.442e-5
0.586, -1.481e-5
0.587, -1.508e-5
0.588, -1.542e-5
0.589, -1.571e-5
0.590, -1.602e-5
0.591, -1.643e-5
0.592, -1.670e-5
0.593, -1.706e-5
0.594, -1.740e-5
0.595, -1.777e-5
0.596, -1.815e-5
0.597, -1.848e-5
0.598, -1.884e-5
0.599, -1.926e-5
0.600, -1.955e-5
0.601, -1.996e-5
0.602, -2.033e-5
0.603, -2.064e-5
0.604, -2.105e-5
0.605, -2.139e-5
0.606, -2.178e-5
0.607, -2.211e-5
0.608, -2.247e-5
0.609, -2.284e-5
0.610, -2.322e-5
0.611, -2.357e-5
0.612, -2.395e-5
0.613, -2.428e-5
0.614, -2.469e-5
0.615, -2.505e-5
0.616, -2.534e-5
0.617, -2.570e-5
0.618, -2.609e-5
0.619, -2.639e-5
0.620, -2.679e-5
0.621, -2.714e-5
0.622, -2.744e-5
0.623, -2.783e-5
0.624, -2.812e-5
0.625, -2.846e-5
0.626, -2.880e-5
0.627, -2.909e-5
0.628, -2.951e-5
0.629, -2.978e-5
0.630, -3.010e-5
0.631, -3.046e-5
0.632, -3.072e-5
0.633, -3.108e-5
0.634, -3.142e-5
0.635, -3.164e-5
0.636, -3.198e-5
0.637, -3.223e-5
0.638, -3.253e-5
0.639, -3.288e-5
0.640, -3.318e-5
0.641, -3.344e-5
0.642, -3.374e-5
0.643, -3.399e-5
0.644, -3.430e-5
0.645, -3.454e-5
0.646, -3.485e-5
0.647, -3.514e-5
0.648, -3.531e-5
0.649, -3.565e-5
0.650, -3.590e-5
0.651, -3.614e-5
0.652, -3.644e-5
0.653, -3.670e-5
0.654, -3.694e-5
0.655, -3.723e-5
0.656, -3.744e-5
0.657, -3.769e-5
0.658, -3.795e-5
0.659, -3.825e-5
0.660, -3.849e-5
0.661, -3.868e-5
0.662, -3.895e-5
0.663, -3.926e-5
0.664, -3.948e-5
0.665, -3.986e-5
0.666, -4.015e-5
0.667, -4.027e-5
0.668, -4.053e-5
0.669, -4.074e-5
0.670, -4.095e-5
0.671, -4.131e-5
0.672, -4.154e-5
0.673, -4.174e-5
0.674, -4.198e-5
0.675, -4.218e-5
0.676, -4.248e-5
0.677, -4.271e-5
0.678, -4.296e-5
0.679, -4.324e-5
0.680, -4.339e-5
0.681, -4.366e-5
0.682, -4.395e-5
0.683, -4.417e-5
0.684, -4.446e-5
0.685, -4.477e-5
0.686, -4.495e-5
0.687, -4.527e-5
0.688, -4.546e-5
0.689, -4.577e-5
0.690, -4.601e-5
0.691, -4.627e-5
0.692, -4.655e-5
0.693, -4.678e-5
0.694, -4.702e-5
0.695, -4.731e-5
0.696, -4.753e-5
0.697, -4.787e-5
0.698, -4.816e-5
0.699, -4.838e-5
0.700, -4.872e-5
0.701, -4.890e-5
0.702, -4.923e-5
0.703, -4.954e-5
0.704, -4.978e-5
0.705, -5.006e-5
0.706, -5.033e-5
0.707, -5.061e-5
0.708, -5.095e-5
0.709, -5.123e-5
0.710, -5.151e-5
0.711, -5.184e-5
0.712, -5.204e-5
0.713, -5.233e-5
0.714, -5.264e-5
0.715, -5.294e-5
0.716, -5.328e-5
0.717, -5.363e-5
0.718, -5.385e-5
0.719, -5.422e-5
0.720, -5.442e-5
0.721, -5.471e-5
0.722, -5.506e-5
0.723, -5.535e-5
0.724, -5.565e-5
0.725, -5.592e-5
0.726, -5.621e-5
0.727, -5.660e-5
0.728, -5.675e-5
0.729, -5.709e-5
0.730, -5.744e-5
0.731, -5.769e-5
0.732, -5.806e-5
0.733, -5.831e-5
0.734, -5.860e-5
0.735, -5.891e-5
0.736, -5.920e-5
0.737, -5.957e-5
0.738, -5.987e-5
0.739, -6.010e-5
0.740, -6.040e-5
0.741, -6.068e-5
0.742, -6.098e-5
0.743, -6.132e-5
0.744, -6.154e-5
0.745, -6.187e-5
0.746, -6.221e-5
0.747, -6.246e-5
0.748, -6.281e-5
0.749, -6.311e-5
0.750, -6.338e-5
0.751, -6.372e-5
0.752, -6.394e-5
0.753, -6.427e-5
0.754, -6.459e-5
0.755, -6.486e-5
0.756, -6.520e-5
0.757, -6.538e-5
0.758, -6.570e-5
0.759, -6.605e-5
0.760, -6.630e-5
0.761, -6.665e-5
0.762, -6.685e-5
0.763, -6.714e-5
0.764, -6.748e-5
0.765, -6.773e-5
0.766, -6.800e-5
0.767, -6.832e-5
0.768, -6.880e-5
0.769, -6.894e-5
0.770, -6.916e-5
0.771, -6.943e-5
0.772, -6.976e-5
0.773, -6.998e-5
0.774, -7.026e-5
0.775, -7.062e-5
0.776, -7.081e-5
0.777, -7.111e-5
0.778, -7.140e-5
0.779, -7.171e-5
0.780, -7.191e-5
0.781, -7.218e-5
0.782, -7.246e-5
0.783, -7.275e-5
0.784, -7.295e-5
0.785, -7.324e-5
0.786, -7.349e-5
0.787, -7.381e-5
0.788, -7.408e-5
0.789, -7.429e-5
0.790, -7.456e-5
0.791, -7.486e-5
0.792, -7.509e-5
0.793, -7.542e-5
0.794, -7.566e-5
0.795, -7.586e-5
0.796, -7.618e-5
0.797, -7.641e-5
0.798, -7.666e-5
0.799, -7.699e-5
